# Neckel and Labs 1984, Table III
# Phi is mean intensity of the disk
# irradiance at Earth's mean distance = 6.8e-5 * Phi
#lambda Sigma    Phi/Sigma
#A      W/cm2/sr none
3298.15 4.529 0.6998
3317.65 4.149 0.7026
3337.95 3.984 0.7058
3358.55 3.810 0.7069
3378.65 3.717 0.7089
3398.25 4.187 0.7081
3418.65 3.972 0.7104
3437.95 3.644 0.7138
3458.25 3.899 0.7131
3478.55 3.929 0.7127

3498.15 4.041 0.7168
3518.55 3.990 0.7168
3538.95 4.705 0.7189
3559.05 4.398 0.7176
3579.35 3.139 0.7219
3599.55 4.417 0.7251
3620.15 4.335 0.7278
3640.55 4.119 0.7304
3661.05 5.182 0.7324
3677.75 4.752 0.7334

3698.25 4.895 0.7369
3718.65 4.700 0.7338
3736.65 3.933 0.7303
3754.75 4.147 0.7299
3775.25 5.424 0.7318
3794.35 4.708 0.7303
3813.95 4.708 0.7137
3833.55 2.869 0.7572
3853.75 4.349 0.7134
3873.75 4.206 0.7132

3894.15 4.634 0.7447
3911.95 5.297 0.7190
3932.45 2.919 0.7575
3950.25 5.184 0.7270
3969.25 3.387 0.7591
3989.25 6.509 0.7295
4001.05 6.957 0.7254
4020.00 7.273 0.7274
4040.00 6.630 0.7268
4060.00 6.690 0.7313

4078.8 6.771 0.7376
4098.8 6.189 0.7704
4117.1 7.168 0.7436
4137.1 6.983 0.7329
4156.5 7.187 0.7331
4175.9 6.799 0.7360
4191.2 6.645 0.7359
4211.2 7.266 0.7381
4231.0 6.583 0.7403
4247.5 6.980 0.7365

4267.9 6.460 0.7409
4286.4 6.561 0.7396
4306.4 4.930 0.7461
4326.4 6.988 0.7595
4339.7 6.366 0.7809
4359.2 7.190 0.7507
4371.9 7.261 0.7472
4391.9 6.588 0.7471
4409.0 7.046 0.7495
4428.0 7.657 0.7516

4447.2 7.615 0.7581
4464.0 7.238 0.7541
4483.2 7.869 0.7609
4503.2 8.275 0.7587
4523.6 7.755 0.7602
4543.6 7.806 0.7625
4563.6 7.968 0.7625
4583.7 7.794 0.7654
4603.7 7.804 0.7648
4623.6 8.068 0.7659

4643.6 7.681 0.7628
4663.6 7.527 0.7656
4683.5 7.720 0.7659
4703.5 7.455 0.7677
4723.3 7.729 0.7695
4743.3 7.769 0.7717
4763.3 7.535 0.7738
4783.3 7.819 0.7762
4803.3 7.859 0.7735
4823.3 7.767 0.7777

4843.1 7.523 0.7864
4863.1 6.099 0.8136
4883.1 7.044 0.7823
4892.9 7.359 0.7788
4912.9 7.145 0.7823
4932.9 7.327 0.7792
4951.5 7.520 0.7834
4970.7 7.529 0.7823
4988.9 7.255 0.7836
5008.9 6.888 0.7821

5028.9 7.244 0.7827
5048.9 7.213 0.7845
5068.3 7.395 0.7864
5088.3 7.242 0.7881
5108.3 7.252 0.7862
5128.3 7.109 0.7862
5148.3 6.946 0.7869
5168.3 6.286 0.7897
5188.3 6.468 0.7927
5199.5 6.803 0.7904

5219.3 7.026 0.7914
5238.8 7.137 0.7920
5258.0 6.832 0.7933
5278.0 6.741 0.7985
5298.0 7.217 0.7985
5316.5 7.186 0.7975
5335.2 6.851 0.7981
5353.9 7.186 0.7985
5372.0 6.861 0.7977
5391.5 6.830 0.7969

5410.0 6.687 0.8001
5430.0 6.859 0.8042
5450.0 6.972 0.8061
5470.0 6.808 0.8064
5490.0 6.887 0.8042
5508.0 6.847 0.8048
5527.3 6.827 0.8050
5547.0 6.917 0.8060
5566.9 6.623 0.8111
5586.9 6.613 0.8074

5606.9 6.623 0.8102
5626.9 6.794 0.8087
5646.0 6.701 0.8092
5666.0 6.670 0.8130
5686.0 6.706 0.8126
5706.0 6.529 0.8105
5726.0 6.824 0.8163
5746.0 6.711 0.8138
5766.0 6.712 0.8136
5784.5 6.578 0.8146

5804.5 6.708 0.8121
5824.5 6.734 0.8149
5844.5 6.698 0.8173
5864.5 6.539 0.8143
5884.0 6.325 0.8207
5903.7 6.308 0.8210
5923.5 6.435 0.8215
5943.5 6.440 0.8193
5963.5 6.519 0.8204
5983.0 6.302 0.8230

6003.0 6.273 0.8213
6023.0 6.190 0.8213
6043.0 6.360 0.8196
6063.0 6.269 0.8215
6080.0 6.231 0.8224
6100.0 6.190 0.8200
6120.0 6.250 0.8207
6140.0 6.108 0.8229
6160.0 5.996 0.8226
6180.0 6.189 0.8235

6200.0 6.148 0.8279
6219.7 6.057 0.8274
6239.0 5.935 0.8254
6259.0 5.935 0.8280
6279.0 6.049 0.8270
6299.0 5.883 0.8279
6319.0 5.887 0.8263
6339.0 5.855 0.8308
6359.0 5.906 0.8272
6379.0 5.923 0.8256

6399.0 5.771 0.8306
6419.0 5.728 0.8300
6439.0 5.759 0.8321
6459.0 5.709 0.8305
6479.0 5.689 0.8323
6499.0 5.548 0.8291
6519.0 5.669 0.8299
6539.0 5.600 0.8392
6559.0 4.656 0.8659
6621.0 5.566 0.8354

6663.0 5.475 0.8364
6790.0 5.170 0.8396
7090.0 4.840 0.8464
7465.0 4.447 0.8542
7552.0 4.315 0.8559
7815.0 4.070 0.8609
7875.0 3.996 0.8619
7980.0 3.923 0.8635
8465.0 3.472 0.8705
8570.0 3.400 0.8719

8633.0 3.406 0.8728
8880.0 3.200 0.8755
9042.0 2.991 0.8770
9815.0 2.550 0.8836
9904.0 2.547 0.8841
10010.0 2.484 0.8849
10100.0 2.446 0.8857
10179.0 2.396 0.8863
10270.0 2.356 0.8870
10440.0 2.267 0.8881

10510.0 2.198 0.8887
10640.0 2.130 0.8897
10768.0 2.085 0.8907
11860.0 1.669 0.8986
12330.0 1.580 0.9020
12470.0 1.517 0.9031
